time,angle
0.000133,-0.424655
0.000200,-0.424483
0.000267,-0.424140
0.000333,-0.423797
0.000400,-0.423454
0.000467,-0.423110
0.000533,-0.422767
0.000600,-0.422596
0.000667,-0.422252
0.000733,-0.421909
0.000800,-0.421738
0.000867,-0.421566
0.000933,-0.421223
0.001000,-0.421051
0.001067,-0.420880
0.001133,-0.420880
0.001200,-0.420708
0.001267,-0.420537
0.001333,-0.420365
0.001400,-0.420365
0.001467,-0.420194
0.001533,-0.420194
0.001600,-0.420194
0.001667,-0.420194
0.001733,-0.420194
0.001800,-0.420194
0.001867,-0.420194
0.001933,-0.420194
0.002000,-0.420194
0.002067,-0.420194
0.002133,-0.420194
0.002200,-0.420194
0.002267,-0.420194
0.002333,-0.420194
0.002400,-0.420194
0.002467,-0.420194
0.002533,-0.420194
0.002600,-0.420194
0.002667,-0.420365
0.002733,-0.420537
0.002800,-0.420708
0.002867,-0.421051
0.002933,-0.421395
0.003000,-0.421909
0.003067,-0.421909
0.003133,-0.421909
0.003200,-0.422252
0.003267,-0.422596
0.003333,-0.422767
0.003400,-0.423110
0.003467,-0.423282
0.003533,-0.423797
0.003600,-0.423968
0.003667,-0.424140
0.003733,-0.424483
0.003800,-0.424826
0.003867,-0.425169
0.003933,-0.425512
0.004000,-0.425684
0.004067,-0.426027
0.004133,-0.426370
0.004200,-0.426713
0.004267,-0.426885
0.004333,-0.427400
0.004400,-0.427571
0.004467,-0.427743
0.004533,-0.427915
0.004600,-0.428258
0.004667,-0.428429
0.004733,-0.428601
0.004800,-0.428944
0.004867,-0.429116
0.004933,-0.429287
0.005000,-0.429459
0.005067,-0.429630
0.005133,-0.429802
0.005200,-0.429973
0.005267,-0.430145
0.005333,-0.430317
0.005400,-0.430317
0.005467,-0.430831
0.005533,-0.430831
0.005600,-0.430831
0.005667,-0.430831
0.005733,-0.430831
0.005800,-0.431003
0.005867,-0.431003
0.005933,-0.431003
0.006000,-0.431003
0.006067,-0.431003
0.006133,-0.431175
0.006200,-0.431175
0.006267,-0.431175
0.006333,-0.431175
0.006400,-0.431175
0.006467,-0.431175
0.006533,-0.431175
0.006600,-0.431175
0.006667,-0.431175
0.006733,-0.431175
0.006800,-0.431175
0.006867,-0.431175
0.006933,-0.431175
0.007000,-0.431175
0.007067,-0.431175
0.007133,-0.430831
0.007200,-0.430660
0.007267,-0.430488
0.007333,-0.430145
0.007400,-0.429973
0.007467,-0.429630
0.007533,-0.429287
0.007600,-0.428944
0.007667,-0.428429
0.007733,-0.428258
0.007800,-0.427915
0.007867,-0.427571
0.007933,-0.427057
0.008000,-0.426713
0.008067,-0.426370
0.008133,-0.426027
0.008200,-0.425684
0.008267,-0.425341
0.008333,-0.425169
0.008400,-0.424826
0.008467,-0.424483
0.008533,-0.424311
0.008600,-0.423797
0.008667,-0.423625
0.008733,-0.423282
0.008800,-0.422939
0.008867,-0.422767
0.008933,-0.422424
0.009000,-0.422081
0.009067,-0.421909
0.009133,-0.421566
0.009200,-0.421395
0.009267,-0.421223
0.009333,-0.421051
0.009400,-0.420880
0.009467,-0.420708
0.009533,-0.420537
0.009600,-0.420537
0.009667,-0.420365
0.009733,-0.420365
0.009800,-0.420194
0.009867,-0.420194
0.009933,-0.420194
0.010000,-0.420194
0.010067,-0.420194
0.010133,-0.420194
0.010200,-0.420194
0.010267,-0.420194
0.010333,-0.420194
0.010400,-0.420194
0.010467,-0.420194
0.010533,-0.420194
0.010600,-0.420194
0.010667,-0.420194
0.010733,-0.420194
0.010800,-0.420194
0.010867,-0.420194
0.010933,-0.420194
0.011000,-0.420365
0.011067,-0.420708
0.011133,-0.421223
0.011200,-0.421223
0.011267,-0.421395
0.011333,-0.421909
0.011400,-0.421909
0.011467,-0.422081
0.011533,-0.422596
0.011600,-0.422596
0.011667,-0.422767
0.011733,-0.423110
0.011800,-0.423282
0.011867,-0.423625
0.011933,-0.423968
0.012000,-0.424140
0.012067,-0.424483
0.012133,-0.424998
0.012200,-0.424998
0.012267,-0.425341
0.012333,-0.425684
0.012400,-0.426027
0.012467,-0.426199
0.012533,-0.426713
0.012600,-0.426885
0.012667,-0.427400
0.012733,-0.427400
0.012800,-0.427571
0.012867,-0.428086
0.012933,-0.428086
0.013000,-0.428258
0.013067,-0.428601
0.013133,-0.428772
0.013200,-0.428944
0.013267,-0.429459
0.013333,-0.429459
0.013400,-0.429459
0.013467,-0.429630
0.013533,-0.429802
0.013600,-0.429973
0.013667,-0.430145
0.013733,-0.430317
0.013800,-0.430488
0.013867,-0.430488
0.013933,-0.430660
0.014000,-0.430831
0.014067,-0.430831
0.014133,-0.430831
0.014200,-0.431003
0.014267,-0.431003
0.014333,-0.431003
0.014400,-0.431003
0.014467,-0.431003
0.014533,-0.431175
0.014600,-0.431175
0.014667,-0.431175
0.014733,-0.431175
0.014800,-0.431175
0.014867,-0.431175
0.014933,-0.431175
0.015000,-0.431175
0.015067,-0.431175
0.015133,-0.431175
0.015200,-0.431175
0.015267,-0.431175
0.015333,-0.431175
0.015400,-0.431003
0.015467,-0.430831
0.015533,-0.430660
0.015600,-0.430488
0.015667,-0.430145
0.015733,-0.429802
0.015800,-0.429459
0.015867,-0.429116
0.015933,-0.428772
0.016000,-0.428429
0.016067,-0.428086
0.016133,-0.427743
0.016200,-0.427400
0.016267,-0.426885
0.016333,-0.426542
0.016400,-0.426199
0.016467,-0.425856
0.016533,-0.425512
0.016600,-0.425169
0.016667,-0.424826
0.016733,-0.424483
0.016800,-0.424140
0.016867,-0.423797
0.016933,-0.423625
0.017000,-0.423282
0.017067,-0.422939
0.017133,-0.422596
0.017200,-0.422424
0.017267,-0.422081
0.017333,-0.421738
0.017400,-0.421395
0.017467,-0.421223
0.017533,-0.421051
0.017600,-0.420880
0.017667,-0.420708
0.017733,-0.420365
0.017800,-0.420365
0.017867,-0.420194
0.017933,-0.420022
0.018000,-0.420022
0.018067,-0.420022
0.018133,-0.420022
0.018200,-0.419850
0.018267,-0.419850
0.018333,-0.419850
0.018400,-0.419850
0.018467,-0.419850
0.018533,-0.419850
0.018600,-0.419850
0.018667,-0.419850
0.018733,-0.419850
0.018800,-0.419850
0.018867,-0.419850
0.018933,-0.419850
0.019000,-0.419850
0.019067,-0.419850
0.019133,-0.419850
0.019200,-0.420022
0.019267,-0.420022
0.019333,-0.420365
0.019400,-0.420537
0.019467,-0.420708
0.019533,-0.420880
0.019600,-0.421223
0.019667,-0.421395
0.019733,-0.421566
0.019800,-0.421909
0.019867,-0.422596
0.019933,-0.422596
0.020000,-0.422767
0.020067,-0.423282
0.020133,-0.423282
0.020200,-0.423968
0.020267,-0.423968
0.020333,-0.424140
0.020400,-0.424655
0.020467,-0.424826
0.020533,-0.425169
0.020600,-0.425341
0.020667,-0.425856
0.020733,-0.426199
0.020800,-0.426370
0.020867,-0.426713
0.020933,-0.427057
0.021000,-0.427228
0.021067,-0.427571
0.021133,-0.427743
0.021200,-0.428086
0.021267,-0.428258
0.021333,-0.428772
0.021400,-0.428772
0.021467,-0.428772
0.021533,-0.429116
0.021600,-0.429287
0.021667,-0.429459
0.021733,-0.429630
0.021800,-0.429802
0.021867,-0.429973
0.021933,-0.429973
0.022000,-0.430145
0.022067,-0.430317
0.022133,-0.430488
0.022200,-0.430488
0.022267,-0.430660
0.022333,-0.430660
0.022400,-0.430831
0.022467,-0.430831
0.022533,-0.430831
0.022600,-0.431003
0.022667,-0.431003
0.022733,-0.431003
0.022800,-0.431003
0.022867,-0.431003
0.022933,-0.431003
0.023000,-0.431003
0.023067,-0.431003
0.023133,-0.431003
0.023200,-0.431003
0.023267,-0.431003
0.023333,-0.431003
0.023400,-0.431003
0.023467,-0.431003
0.023533,-0.431003
0.023600,-0.431003
0.023667,-0.430831
0.023733,-0.430660
0.023800,-0.430317
0.023867,-0.430145
0.023933,-0.429973
0.024000,-0.429459
0.024067,-0.429287
0.024133,-0.428944
0.024200,-0.428601
0.024267,-0.428086
0.024333,-0.427915
0.024400,-0.427571
0.024467,-0.427057
0.024533,-0.426713
0.024600,-0.426370
0.024667,-0.426027
0.024733,-0.425684
0.024800,-0.425169
0.024867,-0.424826
0.024933,-0.424655
0.025000,-0.424311
0.025067,-0.423968
0.025133,-0.423797
0.025200,-0.423454
0.025267,-0.422939
0.025333,-0.422767
0.025400,-0.422424
0.025467,-0.422252
0.025533,-0.421909
0.025600,-0.421566
0.025667,-0.421395
0.025733,-0.421223
0.025800,-0.420880
0.025867,-0.420708
0.025933,-0.420537
0.026000,-0.420365
0.026067,-0.420194
0.026133,-0.420194
0.026200,-0.420022
0.026267,-0.420022
0.026333,-0.420022
0.026400,-0.419850
0.026467,-0.419850
0.026533,-0.419850
0.026600,-0.419850
0.026667,-0.419850
0.026733,-0.419850
0.026800,-0.419850
0.026867,-0.419850
0.026933,-0.419850
0.027000,-0.419850
0.027067,-0.419850
0.027133,-0.419850
0.027200,-0.419850
0.027267,-0.419850
0.027333,-0.419850
0.027400,-0.419850
0.027467,-0.419850
0.027533,-0.420022
0.027600,-0.420194
0.027667,-0.420365
0.027733,-0.420537
0.027800,-0.420708
0.027867,-0.421223
0.027933,-0.421395
0.028000,-0.421566
0.028067,-0.421909
0.028133,-0.422081
0.028200,-0.422252
0.028267,-0.422596
0.028333,-0.422939
0.028400,-0.423110
0.028467,-0.423454
0.028533,-0.423968
0.028600,-0.423968
0.028667,-0.424655
0.028733,-0.424655
0.028800,-0.424826
0.028867,-0.425341
0.028933,-0.425512
0.029000,-0.426027
0.029067,-0.426027
0.029133,-0.426370
0.029200,-0.426713
0.029267,-0.426885
0.029333,-0.427228
0.029400,-0.427400
0.029467,-0.427571
0.029533,-0.427743
0.029600,-0.428086
0.029667,-0.428429
0.029733,-0.428429
0.029800,-0.428601
0.029867,-0.428944
0.029933,-0.429287
0.030000,-0.429459
0.030067,-0.429459
0.030133,-0.429973
0.030200,-0.429973
0.030267,-0.429973
0.030333,-0.429973
0.030400,-0.430145
0.030467,-0.430145
0.030533,-0.430317
0.030600,-0.430488
0.030667,-0.430488
0.030733,-0.430488
0.030800,-0.430488
0.030867,-0.430488
0.030933,-0.430660
0.031000,-0.430660
0.031067,-0.430660
0.031133,-0.430660
0.031200,-0.430660
0.031267,-0.430660
0.031333,-0.430660
0.031400,-0.430660
0.031467,-0.430660
0.031533,-0.430660
0.031600,-0.430660
0.031667,-0.430660
0.031733,-0.430660
0.031800,-0.430660
0.031867,-0.430660
0.031933,-0.430660
0.032000,-0.430488
0.032067,-0.430317
0.032133,-0.430145
0.032200,-0.429973
0.032267,-0.429630
0.032333,-0.429287
0.032400,-0.428944
0.032467,-0.428601
0.032533,-0.428258
0.032600,-0.427915
0.032667,-0.427571
0.032733,-0.427228
0.032800,-0.426885
0.032867,-0.426542
0.032933,-0.426027
0.033000,-0.425684
0.033067,-0.425341
0.033133,-0.424998
0.033200,-0.424655
0.033267,-0.424483
0.033333,-0.423968
0.033400,-0.423797
0.033467,-0.423454
0.033533,-0.423282
0.033600,-0.422939
0.033667,-0.422596
0.033733,-0.422252
0.033800,-0.421909
0.033867,-0.421738
0.033933,-0.421395
0.034000,-0.421223
0.034067,-0.420880
0.034133,-0.420708
0.034200,-0.420365
0.034267,-0.420365
0.034333,-0.420194
0.034400,-0.420022
0.034467,-0.420022
0.034533,-0.419850
0.034600,-0.419850
0.034667,-0.419850
0.034733,-0.419850
0.034800,-0.419679
0.034867,-0.419679
0.034933,-0.419679
0.035000,-0.419679
0.035067,-0.419679
0.035133,-0.419679
0.035200,-0.419679
0.035267,-0.419679
0.035333,-0.419679
0.035400,-0.419679
0.035467,-0.419679
0.035533,-0.419679
0.035600,-0.419679
0.035667,-0.419679
0.035733,-0.419679
0.035800,-0.419850
0.035867,-0.419850
0.035933,-0.420022
0.036000,-0.420194
0.036067,-0.420880
0.036133,-0.420880
0.036200,-0.420880
0.036267,-0.421223
0.036333,-0.421395
0.036400,-0.421909
0.036467,-0.421909
0.036533,-0.422252
0.036600,-0.422596
0.036667,-0.422767
0.036733,-0.423110
0.036800,-0.423282
0.036867,-0.423625
0.036933,-0.423968
0.037000,-0.424655
0.037067,-0.424655
0.037133,-0.424826
0.037200,-0.425341
0.037267,-0.425512
0.037333,-0.425856
0.037400,-0.426199
0.037467,-0.426713
0.037533,-0.426713
0.037600,-0.426885
0.037667,-0.427400
0.037733,-0.427400
0.037800,-0.428086
0.037867,-0.428086
0.037933,-0.428086
0.038000,-0.428772
0.038067,-0.428772
0.038133,-0.428772
0.038200,-0.428944
0.038267,-0.429116
0.038333,-0.429459
0.038400,-0.429459
0.038467,-0.429630
0.038533,-0.429802
0.038600,-0.429973
0.038667,-0.430145
0.038733,-0.430145
0.038800,-0.430145
0.038867,-0.430317
0.038933,-0.430317
0.039000,-0.430488
0.039067,-0.430488
0.039133,-0.430488
0.039200,-0.430488
0.039267,-0.430660
0.039333,-0.430660
0.039400,-0.430660
0.039467,-0.430660
0.039533,-0.430660
0.039600,-0.430660
0.039667,-0.430660
0.039733,-0.430660
0.039800,-0.430660
0.039867,-0.430660
0.039933,-0.430660
0.040000,-0.430660
0.040067,-0.430660
0.040133,-0.430660
0.040200,-0.430660
0.040267,-0.430488
0.040333,-0.430317
0.040400,-0.429973
0.040467,-0.429802
0.040533,-0.429630
0.040600,-0.429287
0.040667,-0.428944
0.040733,-0.428601
0.040800,-0.428258
0.040867,-0.427915
0.040933,-0.427571
0.041000,-0.427228
0.041067,-0.426885
0.041133,-0.426370
0.041200,-0.426027
0.041267,-0.425684
0.041333,-0.425341
0.041400,-0.425169
0.041467,-0.424655
0.041533,-0.424483
0.041600,-0.423968
0.041667,-0.423797
0.041733,-0.423454
0.041800,-0.423110
0.041867,-0.422767
0.041933,-0.422596
0.042000,-0.422252
0.042067,-0.422081
0.042133,-0.421738
0.042200,-0.421566
0.042267,-0.421223
0.042333,-0.420880
0.042400,-0.420708
0.042467,-0.420537
0.042533,-0.420365
0.042600,-0.420194
0.042667,-0.420022
0.042733,-0.420022
0.042800,-0.419850
0.042867,-0.419850
0.042933,-0.419679
0.043000,-0.419679
0.043067,-0.419679
0.043133,-0.419679
0.043200,-0.419679
0.043267,-0.419679
0.043333,-0.419679
0.043400,-0.419679
0.043467,-0.419679
0.043533,-0.419679
0.043600,-0.419679
0.043667,-0.419679
0.043733,-0.419679
0.043800,-0.419679
0.043867,-0.419679
0.043933,-0.419679
0.044000,-0.419679
0.044067,-0.419679
0.044133,-0.419850
0.044200,-0.420022
0.044267,-0.420194
0.044333,-0.420365
0.044400,-0.420537
0.044467,-0.420880
0.044533,-0.421051
0.044600,-0.421223
0.044667,-0.421909
0.044733,-0.421909
0.044800,-0.422081
0.044867,-0.422596
0.044933,-0.422596
0.045000,-0.422939
0.045067,-0.423110
0.045133,-0.423454
0.045200,-0.423625
0.045267,-0.424140
0.045333,-0.424311
0.045400,-0.424655
0.045467,-0.424998
0.045533,-0.425341
0.045600,-0.425512
0.045667,-0.426027
0.045733,-0.426199
0.045800,-0.426713
0.045867,-0.426713
0.045933,-0.426885
0.046000,-0.427400
0.046067,-0.427400
0.046133,-0.427571
0.046200,-0.427915
0.046267,-0.428086
0.046333,-0.428258
0.046400,-0.428429
0.046467,-0.428601
0.046533,-0.428772
0.046600,-0.428944
0.046667,-0.429459
0.046733,-0.429459
0.046800,-0.429459
0.046867,-0.429630
0.046933,-0.429802
0.047000,-0.429973
0.047067,-0.430145
0.047133,-0.430145
0.047200,-0.430145
0.047267,-0.430145
0.047333,-0.430317
0.047400,-0.430317
0.047467,-0.430317
0.047533,-0.430488
0.047600,-0.430488
0.047667,-0.430488
0.047733,-0.430488
0.047800,-0.430488
0.047867,-0.430488
0.047933,-0.430488
0.048000,-0.430488
0.048067,-0.430488
0.048133,-0.430488
0.048200,-0.430488
0.048267,-0.430488
0.048333,-0.430488
0.048400,-0.430488
0.048467,-0.430488
0.048533,-0.430488
0.048600,-0.430317
0.048667,-0.430145
0.048733,-0.429973
0.048800,-0.429802
0.048867,-0.429287
0.048933,-0.429116
0.049000,-0.428772
0.049067,-0.428258
0.049133,-0.428086
0.049200,-0.427743
0.049267,-0.427400
0.049333,-0.427057
0.049400,-0.426713
0.049467,-0.426370
0.049533,-0.425856
0.049600,-0.425684
0.049667,-0.425169
0.049733,-0.424826
0.049800,-0.424483
0.049867,-0.424311
0.049933,-0.423797
0.050000,-0.423625
0.050067,-0.423454
0.050133,-0.422939
0.050200,-0.422767
0.050267,-0.422424
0.050333,-0.422252
0.050400,-0.421909
0.050467,-0.421566
0.050533,-0.421395
0.050600,-0.421051
0.050667,-0.420880
0.050733,-0.420537
0.050800,-0.420365
0.050867,-0.420194
0.050933,-0.420022
0.051000,-0.420022
0.051067,-0.419850
0.051133,-0.419679
0.051200,-0.419679
0.051267,-0.419679
0.051333,-0.419679
0.051400,-0.419679
0.051467,-0.419679
0.051533,-0.419507
0.051600,-0.419507
0.051667,-0.419507
0.051733,-0.419507
0.051800,-0.419507
0.051867,-0.419507
0.051933,-0.419507
0.052000,-0.419507
0.052067,-0.419507
0.052133,-0.419507
0.052200,-0.419507
0.052267,-0.419507
0.052333,-0.419507
0.052400,-0.419507
0.052467,-0.419679
0.052533,-0.419850
0.052600,-0.420194
0.052667,-0.420365
0.052733,-0.420537
0.052800,-0.420880
0.052867,-0.421051
0.052933,-0.421395
0.053000,-0.421909
0.053067,-0.421909
0.053133,-0.422081
0.053200,-0.422424
0.053267,-0.422596
0.053333,-0.423282
0.053400,-0.423282
0.053467,-0.423454
0.053533,-0.423797
0.053600,-0.423968
0.053667,-0.424483
0.053733,-0.424655
0.053800,-0.424998
0.053867,-0.425341
0.053933,-0.425684
0.054000,-0.425856
0.054067,-0.426199
0.054133,-0.426370
0.054200,-0.426713
0.054267,-0.427057
0.054333,-0.427400
0.054400,-0.427571
0.054467,-0.428086
0.054533,-0.428086
0.054600,-0.428258
0.054667,-0.428429
0.054733,-0.428601
0.054800,-0.428772
0.054867,-0.428944
0.054933,-0.429116
0.055000,-0.429287
0.055067,-0.429459
0.055133,-0.429459
0.055200,-0.429630
0.055267,-0.430145
0.055333,-0.430145
0.055400,-0.430145
0.055467,-0.430145
0.055533,-0.430145
0.055600,-0.430145
0.055667,-0.430317
0.055733,-0.430317
0.055800,-0.430317
0.055867,-0.430317
0.055933,-0.430317
0.056000,-0.430488
0.056067,-0.430488
0.056133,-0.430488
0.056200,-0.430488
0.056267,-0.430488
0.056333,-0.430488
0.056400,-0.430488
0.056467,-0.430488
0.056533,-0.430488
0.056600,-0.430488
0.056667,-0.430488
0.056733,-0.430488
0.056800,-0.430488
0.056867,-0.430317
0.056933,-0.430145
0.057000,-0.429802
0.057067,-0.429630
0.057133,-0.429287
0.057200,-0.429116
0.057267,-0.428601
0.057333,-0.428429
0.057400,-0.428086
0.057467,-0.427743
0.057533,-0.427228
0.057600,-0.426885
0.057667,-0.426542
0.057733,-0.426199
0.057800,-0.425856
0.057867,-0.425512
0.057933,-0.425169
0.058000,-0.424826
0.058067,-0.424483
0.058133,-0.424140
0.058200,-0.423797
0.058267,-0.423625
0.058333,-0.423282
0.058400,-0.422939
0.058467,-0.422596
0.058533,-0.422252
0.058600,-0.422081
0.058667,-0.421738
0.058733,-0.421395
0.058800,-0.421223
0.058867,-0.420880
0.058933,-0.420708
0.059000,-0.420365
0.059067,-0.420194
0.059133,-0.420022
0.059200,-0.419850
0.059267,-0.419679
0.059333,-0.419679
0.059400,-0.419679
0.059467,-0.419507
0.059533,-0.419336
0.059600,-0.419336
0.059667,-0.419336
0.059733,-0.419336
0.059800,-0.419336
0.059867,-0.419336
0.059933,-0.419336
0.060000,-0.419336
0.060067,-0.419336
0.060133,-0.419336
0.060200,-0.419336
0.060267,-0.419336
0.060333,-0.419336
0.060400,-0.419336
0.060467,-0.419336
0.060533,-0.419336
0.060600,-0.419336
0.060667,-0.419336
0.060733,-0.419507
0.060800,-0.419850
0.060867,-0.419850
0.060933,-0.420194
0.061000,-0.420365
0.061067,-0.420537
0.061133,-0.420708
0.061200,-0.421051
0.061267,-0.421223
0.061333,-0.421566
0.061400,-0.421738
0.061467,-0.422081
0.061533,-0.422252
0.061600,-0.422596
0.061667,-0.422939
0.061733,-0.423282
0.061800,-0.423454
0.061867,-0.423797
0.061933,-0.424140
0.062000,-0.424655
0.062067,-0.424655
0.062133,-0.425341
0.062200,-0.425341
0.062267,-0.425512
0.062333,-0.426027
0.062400,-0.426199
0.062467,-0.426713
0.062533,-0.426713
0.062600,-0.426885
0.062667,-0.427228
0.062733,-0.427400
0.062800,-0.427571
0.062867,-0.428086
0.062933,-0.428086
0.063000,-0.428258
0.063067,-0.428429
0.063133,-0.428601
0.063200,-0.428772
0.063267,-0.428944
0.063333,-0.429116
0.063400,-0.429287
0.063467,-0.429287
0.063533,-0.429630
0.063600,-0.429630
0.063667,-0.429802
0.063733,-0.429802
0.063800,-0.429973
0.063867,-0.429973
0.063933,-0.430145
0.064000,-0.430145
0.064067,-0.430145
0.064133,-0.430145
0.064200,-0.430145
0.064267,-0.430145
0.064333,-0.430145
0.064400,-0.430145
0.064467,-0.430145
0.064533,-0.430145
0.064600,-0.430145
0.064667,-0.430145
0.064733,-0.430145
0.064800,-0.430145
0.064867,-0.430145
0.064933,-0.430145
0.065000,-0.430145
0.065067,-0.430145
0.065133,-0.430145
0.065200,-0.429973
0.065267,-0.429802
0.065333,-0.429630
0.065400,-0.429287
0.065467,-0.428944
0.065533,-0.428772
0.065600,-0.428429
0.065667,-0.428086
0.065733,-0.427915
0.065800,-0.427400
0.065867,-0.427057
0.065933,-0.426713
0.066000,-0.426370
0.066067,-0.426027
0.066133,-0.425684
0.066200,-0.425341
0.066267,-0.424826
0.066333,-0.424483
0.066400,-0.424311
0.066467,-0.423968
0.066533,-0.423625
0.066600,-0.423282
0.066667,-0.422939
0.066733,-0.422596
0.066800,-0.422424
0.066867,-0.422081
0.066933,-0.421738
0.067000,-0.421566
0.067067,-0.421223
0.067133,-0.420880
0.067200,-0.420708
0.067267,-0.420365
0.067333,-0.420194
0.067400,-0.420022
0.067467,-0.419850
0.067533,-0.419679
0.067600,-0.419507
0.067667,-0.419507
0.067733,-0.419507
0.067800,-0.419336
0.067867,-0.419336
0.067933,-0.419164
0.068000,-0.419164
0.068067,-0.419164
0.068133,-0.419164
0.068200,-0.419164
0.068267,-0.419164
0.068333,-0.419164
0.068400,-0.419164
0.068467,-0.419164
0.068533,-0.419164
0.068600,-0.419164
0.068667,-0.419164
0.068733,-0.419164
0.068800,-0.419164
0.068867,-0.419164
0.068933,-0.419164
0.069000,-0.419164
0.069067,-0.419336
0.069133,-0.419507
0.069200,-0.419850
0.069267,-0.420022
0.069333,-0.420194
0.069400,-0.420537
0.069467,-0.420708
0.069533,-0.421051
0.069600,-0.421223
0.069667,-0.421395
0.069733,-0.421909
0.069800,-0.422081
0.069867,-0.422252
0.069933,-0.422596
0.070000,-0.422939
0.070067,-0.423110
0.070133,-0.423454
0.070200,-0.423797
